# Contour file format: DS9 version 7.5
# levels=( 1e+06 )
global color=green width=1 dash=no dashlist=8 3
physical
level=1e+06 color=red 
(
 12.004856 10.031304
 12.10886 10.34373
 12.218718 10.417432
 12.300036 10.343755
 12.375674 10.03124
 12.218788 9.8801318
 12.004856 10.031304
)
(
 108.49813 16.593804
 108.75673 16.906213
 108.78126 16.926463
 108.8059 16.906213
 109.07491 16.593797
 108.78125 16.321551
 108.49813 16.593804
)
(
 11.205031 21.593738
 10.968794 21.857519
 10.920292 21.906225
 10.727391 22.218725
 10.711222 22.531248
 10.866298 22.843794
 10.968757 22.988595
 11.056653 23.156232
 11.281292 23.375412
 11.593755 23.465003
 11.647849 23.468723
 11.906221 23.529282
 12.108721 23.468783
 12.218704 23.46036
 12.531303 23.365338
 12.763837 23.156231
 12.84371 23.015728
 12.973538 22.843732
 13.086136 22.531222
 13.08248 22.218696
 12.919004 21.906262
 12.843754 21.806914
 12.665705 21.593704
 12.531209 21.494686
 12.218749 21.387095
 11.906288 21.291654
 11.593805 21.365301
 11.2812 21.51691
 11.205031 21.593738
)
(
 27.90575 21.906235
 27.843701 21.933228
 27.531213 22.070895
 27.303953 22.218696
 27.218711 22.331299
 27.06794 22.531195
 26.906299 22.796003
 26.874486 22.843699
 26.661097 23.156201
 26.593766 23.342157
 26.49217 23.468708
 26.593739 23.590332
 26.704372 23.781257
 26.906283 23.974554
 26.975933 24.093699
 27.186904 24.406247
 27.218707 24.441013
 27.531284 24.532397
 27.843742 24.688131
 27.952153 24.718742
 28.156201 24.836889
 28.468788 24.833548
 28.590766 24.718698
 28.781285 24.625343
 29.093767 24.559676
 29.243076 24.406242
 29.406287 24.118371
 29.426114 24.093736
 29.673438 23.781236
 29.718703 23.605628
 29.779756 23.468722
 29.869947 23.156206
 29.718778 22.88529
 29.702767 22.843776
 29.542979 22.531234
 29.408502 22.218695
 29.406263 22.215882
 29.093802 22.092999
 28.781221 22.049091
 28.555673 21.906305
 28.468773 21.808083
 28.156197 21.724012
 27.90575 21.906235
)
(
 60.61086 44.406263
 60.656216 44.486478
 60.706845 44.406269
 60.656223 44.362391
 60.61086 44.406263
)
(
 36.840687 44.718773
 36.773457 45.031291
 36.90628 45.139641
 37.021316 45.031202
 36.959072 44.718784
 36.906212 44.667366
 36.840687 44.718773
)
(
 76.219285 46.281255
 76.281217 46.407482
 76.346518 46.28126
 76.281224 46.22197
 76.219285 46.281255
)
(
 84.829402 46.281286
 85.031224 46.475916
 85.231487 46.281296
 85.031234 46.072266
 84.829402 46.281286
)
(
 57.983887 51.281205
 57.843765 51.396733
 57.616163 51.593707
 57.531263 51.636789
 57.218773 51.682781
 56.906286 51.687149
 56.664122 51.906283
 56.593777 52.032054
 56.447041 52.218794
 56.457437 52.531208
 56.545899 52.843738
 56.593719 52.919904
 56.682858 53.156272
 56.753287 53.468802
 56.765924 53.781215
 56.906256 53.884949
 57.218732 54.078244
 57.242475 54.093771
 57.531205 54.319239
 57.72418 54.406214
 57.843795 54.477997
 58.156274 54.622241
 58.468764 54.585586
 58.781251 54.609118
 59.010645 54.406294
 59.09376 54.264887
 59.24307 54.093783
 59.406267 53.955981
 59.588506 53.781279
 59.718773 53.652587
 59.868868 53.468771
 59.901703 53.156248
 59.851993 52.84372
 59.814715 52.531305
 59.718742 52.303262
 59.676858 52.218772
 59.406273 52.004105
 59.25698 51.906221
 59.093802 51.755911
 58.790957 51.59378
 58.781213 51.585004
 58.468743 51.312735
 58.402664 51.281231
 58.156266 51.15679
 57.983887 51.281205
)
(
 54.077611 54.093787
 53.781235 54.331704
 53.723884 54.406287
 53.564146 54.718802
 53.521228 55.031211
 53.647209 55.343745
 53.781267 55.491467
 53.916779 55.656289
 54.093733 55.821338
 54.406214 55.936897
 54.709628 55.968755
 54.7187 55.973031
 54.730349 55.968757
 55.031304 55.930189
 55.343805 55.745935
 55.436438 55.656279
 55.654192 55.343768
 55.656209 55.330268
 55.757144 55.03125
 55.710683 54.718722
 55.656257 54.607456
 55.588621 54.406301
 55.343795 54.208847
 55.060884 54.093741
 55.031205 54.071689
 54.71873 53.871193
 54.40624 53.910097
 54.09374 54.0822
 54.077611 54.093787
)
(
 61.144058 54.718721
 60.968772 54.739411
 60.656274 54.914218
 60.524215 55.03121
 60.355744 55.343725
 60.343757 55.40245
 60.206202 55.656241
 60.284025 55.968771
 60.343717 56.0635
 60.443947 56.281306
 60.656294 56.481793
 60.948055 56.593748
 60.968775 56.617712
 60.985558 56.906275
 60.996628 57.218801
 61.281212 57.504905
 61.593701 57.514598
 61.891759 57.21874
 61.898161 56.906215
 61.722222 56.593793
 61.906254 56.398728
 62.009864 56.281284
 62.197263 55.968769
 62.218777 55.805421
 62.291811 55.65625
 62.218793 55.517083
 62.192482 55.343719
 62.020351 55.031297
 61.906226 54.932065
 61.593748 54.747772
 61.399425 54.718736
 61.281265 54.661804
 61.144058 54.718721
)
(
 59.248461 57.531222
 59.096005 57.843738
 59.093758 57.963325
 59.053985 58.15626
 59.093743 58.213075
 59.184114 58.468793
 59.406204 58.678282
 59.718801 58.756038
 60.031293 58.738619
 60.343798 58.475388
 60.350071 58.468751
 60.570176 58.156239
 60.575123 57.843714
 60.343741 57.55795
 60.326606 57.531287
 60.031269 57.259469
 59.718781 57.243363
 59.406283 57.380481
 59.248461 57.531222
)
(
 51.098792 64.718755
 51.281233 64.922056
 51.570892 64.718789
 51.281262 64.523918
 51.098792 64.718755
)
(
 37.973595 83.468738
 37.858422 83.781253
 37.9508 84.093787
 38.156203 84.299793
 38.468699 84.366984
 38.779434 84.09375
 38.781226 84.08655
 38.963491 83.781241
 38.781277 83.535749
 38.750705 83.468697
 38.468804 83.217121
 38.156296 83.293705
 37.973595 83.468738
)
(
 55.383848 83.468761
 55.46156 83.781292
 55.656217 83.973905
 55.968714 84.03805
 56.239678 83.78123
 56.274085 83.468707
 55.968772 83.157175
 55.65627 83.178304
 55.383848 83.468761
)
